2021-11-30T20:22:31.193
Frequency Re(k) Im(k)
375.0	0.0007764723932334887	0.023544017332906605
376.0	0.0007754354333619998	0.02351626171340688
377.0	0.0007743989481817143	0.023488483505625553
378.0	0.0007733629394636896	0.023460682632499546
379.0	0.0007723274089903043	0.02343285901653044
380.0	0.0007712923585553679	0.02340501257978118
381.0	0.0007702577899642407	0.023377143243872637
382.0	0.0007692237050339484	0.02334925092998031
383.0	0.000768190105593298	0.02332133555883077
384.0	0.0007671569934829984	0.02329339705069826
385.0	0.0007661243705557831	0.023265435325401186
386.0	0.0007650922386765303	0.02323745030229857
387.0	0.0007640605997223875	0.02320944190028645
388.0	0.0007630294555828965	0.023181410037794305
389.0	0.0007619988081601224	0.023153354632781398
390.0	0.0007609686593687802	0.023125275602733072
391.0	0.0007599390111363658	0.023097172864657036
392.0	0.0007589098654032881	0.02306904633507967
393.0	0.000757881224123005	0.02304089593004211
394.0	0.0007568530892621539	0.02301272156509651
395.0	0.0007558254628006945	0.02298452315530213
396.0	0.0007547983467320436	0.022956300615221442
397.0	0.0007542965717999094	0.022927068491595797
398.0	0.0007544396013256166	0.022896602537926997
399.0	0.0007545839432526479	0.022866110879881496
400.0	0.000754729606741874	0.022835593418874513
401.0	0.000754876601035111	0.022805050055703824
402.0	0.0007550249354560194	0.022774480690544555
403.0	0.0007551746194110136	0.022743885222943867
404.0	0.0007553256623901833	0.02271326355181565
405.0	0.0007554780739682302	0.02268261557543509
406.0	0.0007556318638054134	0.02265194119143322
407.0	0.0007557870416485107	0.022621240296791415
408.0	0.0007559436173317927	0.02259051278783581
409.0	0.0007561016007780071	0.022559758560231638
410.0	0.0007562610019993823	0.022528977508977564
411.0	0.0007564218310986362	0.022498169528399888
412.0	0.0007565840982700098	0.022467334512146726
413.0	0.0007567478138003043	0.022436472353182125
414.0	0.0007569129880699397	0.022405582943780117
415.0	0.0007570796315540251	0.02237466617551866
416.0	0.0007572477548234438	0.02234372193927356
417.0	0.0007574173685459557	0.022312750125212333
418.0	0.0007575884834873115	0.022281750622787946
419.0	0.000757761110512385	0.022250723320732538
420.0	0.0007579352605863211	0.022219668107051015
421.0	0.0007581109447756995	0.022188584869014684
422.0	0.0007582881742497145	0.022157473493154636
423.0	0.0007584669602813707	0.022126333865255247
424.0	0.0007586473142486977	0.022095165870347485
425.0	0.0007588292476359814	0.022063969392702085
426.0	0.000760875780817002	0.022030534574720272
427.0	0.0007651075271981823	0.021994481552816175
428.0	0.0007693443262812067	0.021958396345374772
429.0	0.0007735862248325491	0.021922278804265005
430.0	0.0007778332701294064	0.021886128780283957
431.0	0.0007820855099663787	0.021849946123146623
432.0	0.000786342992662258	0.02181373068147562
433.0	0.000790605767066924	0.021777482302790578
434.0	0.0007948738825683418	0.021741200833497693
435.0	0.0007991473890996755	0.021704886118878903
436.0	0.0008034263371465174	0.021668538003081026
437.0	0.0008077107777542222	0.021632156329104844
438.0	0.0008120007625353659	0.021595740938793906
439.0	0.0008162963436773238	0.02155929167282331
440.0	0.0008205975739499628	0.021522808370688328
441.0	0.0008249045067134636	0.021486290870692842
442.0	0.0008292171959262679	0.021449739009937706
443.0	0.0008335356961531513	0.021413152624308898
444.0	0.0008378600625734272	0.021376531548465603
445.0	0.0008421903509892865	0.021339875615828105
446.0	0.0008465266178342695	0.021303184658565497
447.0	0.0008508689201818756	0.021266458507583325
448.0	0.0008552173157543203	0.021229696992511052
449.0	0.0008595718629314273	0.021192899941689276
450.0	0.00086393262075967	0.021156067182156936
451.0	0.0008682996489613634	0.02111919853963824
452.0	0.000872673007944008	0.021082293838529505
453.0	0.0008770527588097869	0.0210453529018858
454.0	0.0008814389633652188	0.021008375551407426
455.0	0.0008913647497510441	0.02096777185192421
456.0	0.0009088048859659869	0.020922263425714994
457.0	0.0009262664706380825	0.020876712662172472
458.0	0.0009437497457895719	0.020831119355187184
459.0	0.0009612549566023614	0.020785483297605312
460.0	0.0009787823514643013	0.020739804281230997
461.0	0.0009963321820161972	0.020694082096829044
462.0	0.0010139047031995942	0.02064831653412793
463.0	0.0010315001733053341	0.020602507381823162
464.0	0.0010491188540228927	0.02055665442758107
465.0	0.0010667610104905343	0.020510757458042858
466.0	0.0010844269113462585	0.02046481625882922
467.0	0.001102116828779602	0.02041883061454516
468.0	0.001119831038584251	0.02037280030878545
469.0	0.0011375698202115438	0.02032672512414032
470.0	0.0011553334568248095	0.020280604842201833
471.0	0.0011731222353546207	0.020234439243570462
472.0	0.0011909364465549231	0.020188228107862412
473.0	0.0012087763850600888	0.020141971213717278
474.0	0.0012266423494429	0.020095668338806338
475.0	0.0012445346422734643	0.02004931925984129
476.0	0.0012624535701791105	0.02000292375258361
477.0	0.001280399443905227	0.019956481591854515
478.0	0.0012983725783771271	0.019909992551545488
479.0	0.0013163732927628955	0.019863456404629408
480.0	0.0013344019105372502	0.01981687292317243
481.0	0.0013524587595464762	0.01977024187834639
482.0	0.0013705441720743812	0.019723563040442017
483.0	0.0013886584849093356	0.019676836178882835
484.0	0.001406802039412395	0.01963006106223977
485.0	0.0014249751815865448	0.01958323745824657
486.0	0.0014431782621470342	0.019536365133816
487.0	0.0014671484345449642	0.01947423010380341
488.0	0.001491435743734717	0.019411313360116256
489.0	0.001515771976580416	0.019348328309196212
490.0	0.0015401578653082447	0.019285274545196494
491.0	0.001564594155055478	0.019222151661349978
492.0	0.0015890816041187104	0.019158959250061728
493.0	0.0016136209842069088	0.019095696903006304
494.0	0.0016382130806994668	0.019032364211230095
495.0	0.001662858692909265	0.018968960765258964
496.0	0.0016875586343508156	0.018905486155211235
497.0	0.0017123137330135989	0.01884193997091654
498.0	0.0017371248316406392	0.01877832180204049
499.0	0.0017619927880124248	0.018714631238215453
500.0	0.0017869184752361846	0.018650867869177967
501.0	0.001811902782040667	0.018587031284912646
502.0	0.0018369466130764187	0.018523121075803138
503.0	0.0018620508892216842	0.01845913683279038
504.0	0.0018872165478939456	0.01839507814753837
505.0	0.0019124445433672103	0.018330944612607737
506.0	0.0019377358470950333	0.018266735821637663
507.0	0.001963091448039419	0.01820245136953612
508.0	0.0019885123530055553	0.01813809085267919
509.0	0.002013999586982526	0.018073653869119403
510.0	0.00203955419348993	0.018009140018803854
511.0	0.002065177234930551	0.01794454890380222
512.0	0.002090869792949028	0.01787988012854514
513.0	0.0021166329687965797	0.01781513330007352
514.0	0.0021424678837018074	0.01775030802829901
515.0	0.0021683756792475585	0.017685403926276145
516.0	0.002209950026389271	0.017617554735291266
517.0	0.00225193222800217	0.017549586122643845
518.0	0.0022940250728630527	0.017481553459534786
519.0	0.002336230216698191	0.017413457016099126
520.0	0.0023785493378141913	0.017345297087519765
521.0	0.0024209841371537763	0.01727707399492573
522.0	0.002463536338334121	0.017208788086315475
523.0	0.0025062076876665824	0.01714043973750554
524.0	0.0025489999541565595	0.017072029353104753
525.0	0.0025919149294821473	0.01700355736751445
526.0	0.0026349544279502214	0.016935024245954913
527.0	0.0026781202864285423	0.01686643048551828
528.0	0.002721414364252307	0.016797776616248095
529.0	0.002764838543103679	0.016729063202245823
530.0	0.00280839472686257	0.016660290842804164
531.0	0.002852084841427069	0.016591460173567572
532.0	0.0028959108345016425	0.016522571867719778
533.0	0.002939874675351409	0.016453626637198293
534.0	0.002983978354520465	0.016384625233935916
535.0	0.0030282238835123367	0.016315568451128925
536.0	0.0030726132944305182	0.01624645712453185
537.0	0.0031171486395769918	0.016177292133778293
538.0	0.0031618319910065034	0.016108074403727607
539.0	0.0032066654400343692	0.016038804905836757
540.0	0.0032516510966954983	0.01596948465955677
541.0	0.0032967910891522037	0.01590011473375315
542.0	0.0033420875630484187	0.015830696248149194
543.0	0.0033875426808076593	0.015761230374791567
544.0	0.003433158620872362	0.01569171833953656
545.0	0.0034789375768817347	0.015622161423556316
546.0	0.003524881756785589	0.015552560964863177
547.0	0.0035829846427542452	0.015477818175066296
548.0	0.0036518703429262527	0.015398584001917725
549.0	0.003721000885624628	0.015319364519414154
550.0	0.0037903787202946244	0.015240163837791053
551.0	0.0038600062381302282	0.015160986195816052
552.0	0.003929885766609554	0.01508183596173644
553.0	0.004000019563839859	0.01500271763402638
554.0	0.004070409812716074	0.01492363584191756
555.0	0.004141058614897619	0.014844595345696744
556.0	0.00421196798460996	0.014765601036752821
557.0	0.0042831398422781015	0.01468665793735643
558.0	0.004354576008001034	0.014607771200154303
559.0	0.004426278194877358	0.014528946107360824
560.0	0.0044982480021938465	0.014450188069629317
561.0	0.004570486908490334	0.014371502624585388
562.0	0.004642996264515914	0.014292895435005124
563.0	0.004715777286093059	0.01421437228662132
564.0	0.004788831046908064	0.01413593908554147
565.0	0.004862158471247923	0.014057601855261522
566.0	0.0049357603267055	0.013979366733260966
567.0	0.005009637216876581	0.013901239967165134
568.0	0.005083789574074276	0.013823227910462104
569.0	0.005158217652087713	0.01374533701776309
570.0	0.005232921519013916	0.01366757383959646
571.0	0.005307901050193093	0.013589945016727424
572.0	0.005383155921279172	0.013512457273997615
573.0	0.005458685601478992	0.013435117413680276
574.0	0.005534489346994382	0.013357932308350142
575.0	0.005610566194702936	0.013280908893268384
576.0	0.005722170404624293	0.013221819780420831
577.0	0.005873205122022357	0.013183026512371333
578.0	0.006024150693409081	0.01314475662445033
579.0	0.006174991508273384	0.013107003693914664
580.0	0.006325712401729209	0.013069760657593531
581.0	0.006476298685508364	0.013033019847874739
582.0	0.0066267361756739435	0.012996773030218131
583.0	0.00677701121700706	0.012961011441867896
584.0	0.006927110704056199	0.01292572583144111
585.0	0.0070770220988697645	0.01289090649908018
586.0	0.00722673344546443	0.012856543336869872
587.0	0.007376233381108605	0.012822625869235924
588.0	0.0075255111445253365	0.01278914329306091
589.0	0.007674556581140051	0.012756084517273364
590.0	0.007823360145517353	0.012723438201688109
591.0	0.007971912901145359	0.012691192794898545
592.0	0.00812020651773794	0.012659336571044953
593.0	0.008268233266234758	0.012627857665305938
594.0	0.008415986011683271	0.0125967441079837
595.0	0.008563458204191677	0.01256598385707563
596.0	0.008710643868141394	0.012535564829246743
597.0	0.008857537589846691	0.012505474929137648
598.0	0.009004134503845462	0.012475702076962058
599.0	0.009150430278000287	0.012446234234365564
600.0	0.0092964210975824	0.012417059428533547
601.0	0.009442103648503213	0.012388165774551103
602.0	0.009587475099850138	0.0123595414960307
603.0	0.009732533085873633	0.012331174944035048
604.0	0.009877275687563051	0.012303054614332821
605.0	0.009997553998499387	0.012305360023619039
606.0	0.010089074033421283	0.012343432323169524
607.0	0.010180489830828319	0.012381441000341635
608.0	0.010271803690246337	0.012419386363618877
609.0	0.010363017856093124	0.012457268740761493
610.0	0.010454134519054002	0.012495088477488666
611.0	0.010545155817427484	0.012532845936231048
612.0	0.010636083838441234	0.012570541494950375
613.0	0.01072692061953827	0.012608175546022282
614.0	0.01081766814963366	0.012645748495179335
615.0	0.010908328370342005	0.012683260760510968
616.0	0.010998903177175787	0.012720712771517432
617.0	0.011089394420715125	0.01275810496821495
618.0	0.01117980390774919	0.012795437800289383
619.0	0.011270133402389675	0.012832711726295923
620.0	0.011360384627156722	0.012869927212902386
621.0	0.011450559264037851	0.01290708473417387
622.0	0.011540658955520273	0.012944184770896643
623.0	0.011630685305596999	0.012981227809939114
624.0	0.011720639880747463	0.01301821434364817
625.0	0.011810524210892875	0.013055144869278841
626.0	0.01190033979032708	0.013092019888455663
627.0	0.011990088078623218	0.013128839906664106
628.0	0.012079770501516913	0.013165605432770493
629.0	0.012169388451766289	0.013202316978568865
630.0	0.012258943289989556	0.013238975058353555
631.0	0.012348436345480503	0.01327558018851599
632.0	0.012437868917002524	0.01331213288716452
633.0	0.012527242273561695	0.013348633673766146
634.0	0.012616557655159266	0.013385083068808878
635.0	0.012705816273524339	0.013421481593483832
636.0	0.012793084977017697	0.013458147179579306
637.0	0.0128314420677929	0.013502805458470954
638.0	0.012869803490612626	0.013547453526995523
639.0	0.012908169151109357	0.013592091490242765
640.0	0.012946538956040808	0.013636719452077012
641.0	0.012984912813270692	0.013681337515154919
642.0	0.013023290631749881	0.013725945780942989
643.0	0.013061672321497925	0.013770544349734704
644.0	0.013100057793584982	0.013815133320667436
645.0	0.0131384469601141	0.01385971279173903
646.0	0.013176839734203865	0.013904282859824113
647.0	0.013215236029971406	0.013948843620690175
648.0	0.013253635762515713	0.013993395169013281
649.0	0.013292038847901356	0.01403793759839361
650.0	0.01333044520314244	0.014082471001370687
651.0	0.013368854746186942	0.014126995469438393
652.0	0.013407267395901392	0.014171511093059662
653.0	0.013445683072055738	0.014216017961681005
654.0	0.01348410169530866	0.014260516163746743
655.0	0.013522523187193023	0.014305005786713022
656.0	0.01356094747010176	0.014349486917061607
657.0	0.013599374467273925	0.014393959640313403
658.0	0.013637804102781067	0.01443842404104182
659.0	0.013676236301513852	0.014482880202885844
660.0	0.013714670989168962	0.014527328208562963
661.0	0.013753108092236219	0.014571768139881812
662.0	0.013791547537985999	0.014616200077754693
663.0	0.013829989254456837	0.014660624102209793
664.0	0.013868433170443322	0.014705040292403293
665.0	0.013907059832452651	0.014748317610940314
666.0	0.013946958396275584	0.014783618733922078
667.0	0.01398685412290543	0.014818914099358168
668.0	0.014026747008769684	0.014854203767814725
669.0	0.014066637050209255	0.014889487799266674
670.0	0.014106524243480108	0.014924766253105336
671.0	0.014146408584754978	0.01496003918814598
672.0	0.014186290070124922	0.0149953066626351
673.0	0.014226168695600916	0.01503056873425777
674.0	0.014266044457115431	0.015065825460144722
675.0	0.0143059173505239	0.015101076896879414
676.0	0.014345787371606246	0.015136323100504964
677.0	0.014385654516068314	0.015171564126530965
678.0	0.014425518779543293	0.015206800029940171
679.0	0.014465380157593119	0.015242030865195155
680.0	0.014505238645709854	0.015277256686244791
681.0	0.014545094239316997	0.015312477546530676
682.0	0.014584946933770809	0.015347693498993446
683.0	0.014624796724361597	0.015382904596078972
684.0	0.014664643606315007	0.01541811088974453
685.0	0.014704487574793184	0.015453312431464774
686.0	0.014744328624896032	0.015488509272237728
687.0	0.014784166751662416	0.015523701462590604
688.0	0.014824001950071261	0.015558889052585572
689.0	0.014863834215042733	0.015594072091825445
690.0	0.01490366354143936	0.01562925062945927
691.0	0.014943489924067088	0.01566442471418782
692.0	0.014983313357676371	0.015699594394269035
693.0	0.01502313383696323	0.01573475971752338
694.0	0.015062951356570261	0.015769920731339083
695.0	0.015102765911087654	0.01580507748267735
696.0	0.015142577495054172	0.015840230018077453
697.0	0.015172787147642527	0.015870065323060418
698.0	0.015197061018583424	0.01589661525694679
699.0	0.015221333069934308	0.015923164909981337
700.0	0.015245603297671235	0.015949714282743273
701.0	0.015269871697776521	0.015976263375803854
702.0	0.015294138266238757	0.01600281218972644
703.0	0.015318402999052684	0.01602936072506651
704.0	0.015342665892219243	0.01605590898237175
705.0	0.015366926941745422	0.01608245696218206
706.0	0.015391186143644315	0.01610900466502964
707.0	0.015415443493935008	0.016135552091438982
708.0	0.015439698988642551	0.01616209924192696
709.0	0.015463952623797942	0.016188646117002874
710.0	0.015488204395438054	0.016215192717168463
711.0	0.01551245429960558	0.01624173904291794
712.0	0.015536702332349054	0.016268285094738117
713.0	0.015560948489722748	0.01629483087310834
714.0	0.015585192767786641	0.016321376378500597
715.0	0.01560943516260641	0.016347921611379535
716.0	0.015633675670253356	0.01637446657220254
717.0	0.015657914286804377	0.0164010112614197
718.0	0.015682151008341944	0.01642755567947393
719.0	0.015706385830954024	0.016454099826800954
720.0	0.015730618750734084	0.016480643703829363
721.0	0.015754849763781022	0.016507187310980675
722.0	0.01577907886619915	0.016533730648669344
723.0	0.015803306054098135	0.016560273717302804
724.0	0.015827531323592978	0.016586816517281517
725.0	0.015851754670803995	0.01661335904899901
726.0	0.015876625292061575	0.016636547680978112
727.0	0.015901863792198646	0.016657826734550504
728.0	0.015927100515741727	0.016679105994459712
729.0	0.015952335461226937	0.016700385460496278
730.0	0.01597756862718652	0.016721665132451977
731.0	0.016002800012148845	0.016742945010119796
732.0	0.016028029614638464	0.016764225093293898
733.0	0.016053257433176107	0.016785505381769622
734.0	0.016078483466278746	0.016806785875343466
735.0	0.01610370771245957	0.016828066573813028
736.0	0.01612893017022804	0.016849347476977042
737.0	0.016154150838089926	0.016870628584635294
738.0	0.016179369714547292	0.016891909896588633
739.0	0.016204586798098546	0.016913191412638966
740.0	0.016229802087238468	0.01693447313258921
741.0	0.016255015580458214	0.01695575505624327
742.0	0.016280227276245365	0.01697703718340604
743.0	0.016305437173083918	0.016998319513883368
744.0	0.016330645269454342	0.017019602047482037
745.0	0.016355851563833585	0.017040884784009756
746.0	0.016381056054695062	0.017062167723275103
747.0	0.01640625874050878	0.017083450865087578
748.0	0.01643145961974123	0.0171047342092575
749.0	0.016456658690855514	0.01712601775559605
750.0	0.016481855952311303	0.017147301503915226
751.0	0.016507051402564896	0.01716858545402781
752.0	0.016532245040069223	0.017189869605747386
753.0	0.016557436863273864	0.017211153958888295
754.0	0.016582626870625092	0.017232438513265627
755.0	0.016604091815703544	0.017250461827718156
756.0	0.01662322865571682	0.017266446231938987
757.0	0.016642364955700265	0.017282430275293456
758.0	0.01666150071296185	0.01729841395788056
759.0	0.016680635924816098	0.017314397279795633
760.0	0.01669977058858415	0.01733038024113041
761.0	0.01671890470159366	0.01734636284197301
762.0	0.01673803826117878	0.01736234508240799
763.0	0.016757171264680158	0.017378326962516327
764.0	0.016776303709444853	0.017394308482375467
765.0	0.016795435592826376	0.017410289642059328
766.0	0.016814566912184584	0.017426270441638324
767.0	0.016833697664885704	0.017442250881179382
768.0	0.016852827848302283	0.017458230960745967
