2021-12-03T08:22:13.984
Frequency Re(k) Im(k)
NG = 100, Rad = 8.0, (φ, θ) = (90.0,0.0), polydegs = (2, 2), material: Ag
1000.0	0.024510787142454832	0.003344125589595624
999.0	0.02445744352984673	0.0033344743642846142
998.0	0.024404061817624632	0.003324535403337668
997.0	0.024350645707746824	0.003314306783717908
996.0	0.024289886344056145	0.0033069160653306567
995.0	0.024213157023020352	0.003305638374846071
994.0	0.024135878918889565	0.003303645969670623
993.0	0.024058061009908007	0.003300918041550735
992.0	0.023979713065918073	0.003297433796056718
991.0	0.02390084566166606	0.0032931724879525525
990.0	0.0238214701885455	0.0032881134581208204
989.0	0.023741598864641184	0.003282236171994244
988.0	0.023661244742936315	0.0032755202594335867
987.0	0.023580421717545767	0.003267945555981402
986.0	0.023499144527838224	0.003259492145409347
985.0	0.023417428760312546	0.003250140403465843
984.0	0.023335290848095755	0.0032398710427186893
983.0	0.023252748067933492	0.003228665158375495
982.0	0.02316981853454879	0.003216504274953087
981.0	0.023086521192250076	0.003203370393654814
980.0	0.023002875803676177	0.0031892460403031434
979.0	0.022918902935573804	0.003174114313663419
978.0	0.022834623941511756	0.003157958933983159
977.0	0.022750060941445775	0.0031407642915606596
976.0	0.022665236798059447	0.0031225154951462692
975.0	0.022580175089817883	0.003103198419970015
974.0	0.022494900080684513	0.0030827997551803182
973.0	0.022409436686465417	0.0030613070504704153
972.0	0.02232381043775992	0.003038708761661853
971.0	0.022238047439512937	0.0030149942950086256
970.0	0.022152174327180765	0.002990154049980061
969.0	0.022066218219539323	0.002964179460277311
968.0	0.02198020666818232	0.0029370630328359004
967.0	0.02189416760377473	0.0029087983845654157
966.0	0.021808129279146677	0.002879380276578689
965.0	0.02172212020933116	0.002848804645664364
964.0	0.021632251183478984	0.00284237892017798
963.0	0.021541195016209436	0.0028381434604226583
962.0	0.021449382145317882	0.0028330791748916086
961.0	0.021356822647264705	0.002827158813626056
960.0	0.021263527909669653	0.0028203550604292095
959.0	0.021169510678198628	0.002812640595318257
958.0	0.021074785102099706	0.0028039881617726364
957.0	0.02097936677806255	0.0027943706388892054
956.0	0.020883272792054836	0.002783761118537347
955.0	0.02078652175876772	0.0027721329875870404
954.0	0.020689133858283512	0.002759460015260265
953.0	0.02059113086955903	0.0027457164456309064
952.0	0.02049253620030005	0.0027308770952702557
951.0	0.020393374912785582	0.002714917456004263
950.0	0.02029367374518623	0.0026978138027151455
949.0	0.02019346112790698	0.0026795433060831085
948.0	0.02009276719447523	0.002660084150124598
947.0	0.019991623786486383	0.0026394156543410236
946.0	0.019890064452115223	0.002617518400246866
945.0	0.01978812443769957	0.0025943743619981064
944.0	0.019685840671906617	0.0025699670407916993
943.0	0.019583251741999128	0.0025442816026540922
942.0	0.019480397861731467	0.0025173050191820063
941.0	0.019377320830423126	0.0024890262107422237
940.0	0.019274063982781333	0.002459436191579199
939.0	0.019170672129074397	0.0024285282162204414
938.0	0.019067191485294194	0.0023962979265102326
937.0	0.01896366959299111	0.0023627434985432657
936.0	0.018860155228515814	0.0023278657887112445
935.0	0.018741013628489102	0.002393677433369197
934.0	0.01861203613409022	0.0025093199919826504
933.0	0.018479777992033045	0.002627949727128384
932.0	0.018343903272071468	0.0027496742877290395
931.0	0.018204039031785368	0.0028746135418411273
930.0	0.018059771100888522	0.0030029009966030225
929.0	0.017910639259626084	0.0031346853724259073
928.0	0.017756131705124526	0.0032701323570445045
927.0	0.017595678679210955	0.0034094265716929284
926.0	0.01742864510670382	0.003552773790475805
925.0	0.017254322063623356	0.003700403465802565
924.0	0.017071916859144592	0.0038525716287589424
923.0	0.01688054147224278	0.0040095642552700934
922.0	0.016679199032569963	0.004171701219457984
921.0	0.016466767973860312	0.004339340998535432
920.0	0.01624198341602742	0.004512886354602366
919.0	0.016003415248751082	0.004692791306310824
918.0	0.015749442296077533	0.004879569830309905
917.0	0.015478221843212627	0.005073806917882172
916.0	0.01518765371506603	0.005276172885193145
915.0	0.014875338036538628	0.005487442239521845
914.0	0.014538525828210401	0.005708519003214301
913.0	0.014174061798264815	0.005940471285409865
912.0	0.013778319275072864	0.006184579198213974
911.0	0.013347128551418003	0.0064424021004456326
910.0	0.01287570266852132	0.0067158737700771035
909.0	0.012358570120851996	0.007007437443195649
908.0	0.011789534353215184	0.007320236079984802
907.0	0.011161698925014943	0.007658374282930334
906.0	0.010467629817870267	0.008027259948507299
905.0	0.009699775684591357	0.008433998776182476
904.0	0.009129775285498616	0.008857086982788403
903.0	0.009054761090276411	0.009248832886381255
902.0	0.00899199245083839	0.009652193812380128
901.0	0.00894196448889613	0.010066701404119149
900.0	0.008905096808628919	0.010491932077527761
899.0	0.008881751049472607	0.010927524311660435
898.0	0.008872250750041602	0.011373191240790252
897.0	0.008876902192584291	0.01182872879516902
896.0	0.008896015234488594	0.012294019970665752
895.0	0.008929923505810837	0.012769035972099023
894.0	0.008979003699947601	0.01325383500097476
893.0	0.00904369397580736	0.013748559386367072
892.0	0.00912451171393191	0.014253431626698489
891.0	0.00922207103013707	0.014768749750208273
890.0	0.00933710055944539	0.015294882232763554
889.0	0.00947046209315036	0.015832262544735746
888.0	0.009623170695201445	0.016381383239846014
887.0	0.009796416953189299	0.016942789350627225
886.0	0.00999159204774079	0.01751707071629318
885.0	0.01021031636691752	0.018104852732859122
884.0	0.010454472462880785	0.018706784869674004
883.0	0.010726243257300335	0.019323526125008147
882.0	0.011028156561850687	0.01995572638119641
881.0	0.011363137217477125	0.020604002351715268
880.0	0.011734568527956775	0.021268906453499194
879.0	0.0121463652566963	0.021950886394045195
878.0	0.012603061354670746	0.022650232338790013
877.0	0.013109916810257027	0.02336700690632747
876.0	0.013673049459963735	0.024100950525249423
875.0	0.014256065922744815	0.024820054853864737
874.0	0.014796737892239337	0.0254838602691126
873.0	0.015391955096136778	0.026162686975910367
872.0	0.01604849003485964	0.02685572882008558
871.0	0.016774277695596106	0.02756159785680409
870.0	0.017578670424138885	0.028278077486417818
869.0	0.018472758323491125	0.029001757944307698
868.0	0.019469769417492448	0.029727486871199645
867.0	0.020585558133094674	0.03044752150354268
866.0	0.02183916531862425	0.031150187481173715
865.0	0.02325335205366775	0.031817706420622024
864.0	0.024854775926485533	0.03242261676375684
863.0	0.0266728378892969	0.032921887235126276
862.0	0.028734577595819797	0.03324772515020135
861.0	0.03104938514794133	0.03329592669282234
860.0	0.03357321117785277	0.032922203737834145
859.0	0.03615489745424011	0.03198046016500574
858.0	0.03853141967019557	0.03043240405423859
857.0	0.040457868956542214	0.028427785811342865
856.0	0.04184734332788998	0.02621132476842247
855.0	0.04275051118872798	0.023980448770122866
854.0	0.04326532585179932	0.02184652484157978
853.0	0.04348528665652427	0.019859690061370266
852.0	0.04348560542016495	0.01803676913363467
851.0	0.04332379945876461	0.016378111272038046
850.0	0.043043373631433166	0.014876273442351417
849.0	0.042677284633051975	0.013520359619340628
848.0	0.042250602362356136	0.012298213462796007
847.0	0.041782459310377336	0.011197547142018958
846.0	0.04133059610796643	0.010307503831359033
845.0	0.040934821606255806	0.009641410110725565
844.0	0.04053540395564736	0.009024642579801347
843.0	0.04013501716027271	0.008453289477808127
842.0	0.03973582367987641	0.007923727738283391
841.0	0.03933956146359467	0.007432611607247897
840.0	0.0389476159778153	0.006976858609297142
839.0	0.03856108002353158	0.006553634035310039
838.0	0.038180803545003666	0.006160334767008226
837.0	0.03780743518575589	0.005794573004003324
836.0	0.03744145700751351	0.005454160282025776
835.0	0.03708321352354135	0.005137092043891112
834.0	0.036732935990014974	0.00484153293267428
833.0	0.036390762733444895	0.004565802909609237
832.0	0.03605675615876949	0.0043083642505999525
831.0	0.03573091697433812	0.004067809440160587
830.0	0.03541319608118753	0.003842849956581492
829.0	0.035103504500847794	0.003632305924661417
828.0	0.03480172165528449	0.00343509660052581
827.0	0.03450770226218795	0.0032502316454769767
826.0	0.034221282066728496	0.0030768031413750756
825.0	0.033942282595730934	0.002913978297950875
824.0	0.03367051509071341	0.0027609928020292753
823.0	0.033405783751478985	0.0026171447594417916
822.0	0.0331478884011457	0.002481789182047812
821.0	0.03289662666598357	0.0023543329744831793
820.0	0.03265179574871254	0.0022342303778158973
819.0	0.03241319386148038	0.0021209788300273953
818.0	0.032180621374312705	0.0020141152060708547
817.0	0.0319538817259909	0.0019132124030644992
816.0	0.03173278213691039	0.0018178762389318079
815.0	0.031517134157184205	0.0017277426354286578
814.0	0.03132383705355719	0.001655286711356752
813.0	0.031137134590544967	0.0015880164660468554
812.0	0.030954388104637194	0.0015238323849052046
811.0	0.030775471493994098	0.0014625644946578155
810.0	0.030600262955890287	0.0014040538125040837
809.0	0.030428644894126503	0.001348151538643581
808.0	0.03026050381740131	0.001294718314269047
807.0	0.030095730230929898	0.0012436235393183898
806.0	0.02993421852322563	0.0011947447447997015
805.0	0.029775866849642882	0.00114796701497617
804.0	0.029620577014017015	0.0011031824551279551
803.0	0.029468254349501087	0.0010602897009954146
802.0	0.029318807599511564	0.0010191934663620894
801.0	0.029172148799525868	0.0009798041255544522
800.0	0.029028193160334594	0.0009420373279252316
799.0	0.028886858953237136	0.0009058136416503727
798.0	0.02874806739756006	0.0008710582244063232
797.0	0.02861174255080376	0.0008377005187119573
796.0	0.028477811201640647	0.0008056739699135195
795.0	0.028346202765935906	0.0007749157649697953
794.0	0.02821684918590841	0.0007453665903554846
793.0	0.028089684832506363	0.0007169704075468122
792.0	0.027964646411038813	0.0006896742446866309
791.0	0.027841672870076013	0.0006634280031469963
790.0	0.027720705313605445	0.0006381842778166133
789.0	0.02760168691641245	0.000613898190040423
788.0	0.027484562842639622	0.0005905272322295487
787.0	0.027369280167463608	0.0005680311232418758
786.0	0.027255787801821522	0.0005463716737092124
785.0	0.027152605869917683	0.0005332423034134435
784.0	0.027052570829527618	0.0005220980799989127
783.0	0.0269538052842093	0.0005112543342297324
782.0	0.026856278301313194	0.0005007007887951505
781.0	0.026759959937676242	0.0004904275964400578
780.0	0.026664821200524328	0.00048042531869289654
779.0	0.02657083401020148	0.00047068490580455855
778.0	0.026477971164630208	0.0004611976778208456
777.0	0.02638620630540747	0.00045195530671603325
776.0	0.0262955138854555	0.0004429497995209749
775.0	0.026205869138140086	0.00043417348238268283
774.0	0.02611724804778571	0.00042561898549757526
773.0	0.026029627321513874	0.0004172792288634979
772.0	0.025942984362337905	0.0004091474087989269
771.0	0.025857297243451483	0.0004012169851800385
770.0	0.02577254468365288	0.0003934816693477898
769.0	0.02568870602384314	0.0003859354126369799
768.0	0.025605761204542762	0.0003785723954796784
767.0	0.02552369074435716	0.0003713870170363692
766.0	0.025442475719311863	0.00036437388531801907
765.0	0.025362097742964287	0.0003575278077909573
764.0	0.025282538947204	0.0003508437825125852
763.0	0.025203781963730788	0.0003443169899097836
762.0	0.025125809906344655	0.0003379427852967608
761.0	0.02504860635431406	0.00033171669203524554
760.0	0.024972155336947372	0.0003256343949464359
759.0	0.02489644131909174	0.0003196917335427753
758.0	0.024821449187016793	0.0003138846950341317
757.0	0.024747164234361522	0.0003082094074835263
756.0	0.024673572148252366	0.00030266213349318936
755.0	0.024600658995875144	0.00029723926450852834
754.0	0.024528485117806902	0.0002919463941114563
753.0	0.024457077294777665	0.0002867848228122983
752.0	0.02438630265352581	0.00028173646733458736
751.0	0.024316148850278118	0.00027679823184628775
750.0	0.024246603856352012	0.00027196712363622834
749.0	0.024177655948196857	0.0002672402490759562
748.0	0.024109293697806226	0.000262614809750111
747.0	0.024041505963484398	0.0002580880987533276
746.0	0.023974281880951694	0.00025365749714922415
745.0	0.0239076108547765	0.0002493204705856659
744.0	0.023841482550118104	0.00024507456605946473
743.0	0.023775886884772494	0.000240917408823914
742.0	0.023710814021503716	0.00023684669943199247
741.0	0.02364625436065359	0.00023286021090886558
740.0	0.023582198533016133	0.0002289557860471887
739.0	0.02351863739296577	0.00022513133481915615
738.0	0.023455562011830668	0.0002213848318996751
737.0	0.023392963671499234	0.00021771431429511308
736.0	0.0233308338582516	0.00021411787907258244
735.0	0.02326916425680658	0.00021059368118488069
734.0	0.023207946744575367	0.00020713993138650444
733.0	0.023147173386113336	0.00020375489423638825
732.0	0.023086836427763335	0.00020043688618332715
731.0	0.023026928292480604	0.00019718427373008576
730.0	0.022967441574834994	0.00019399547167266306
729.0	0.022908369036180504	0.00019086894141106972
728.0	0.02284970359998823	0.0001878031893284541
727.0	0.022791438347334426	0.00018479676523534195
726.0	0.022733566512539105	0.000181848260876094
725.0	0.022677613915162386	0.00017867663266161302
724.0	0.022624654935611152	0.0001750778664438403
723.0	0.022571957983698723	0.00017154584259040549
722.0	0.02251951965354943	0.00016807921032024366
721.0	0.02246733659592408	0.00016467665042694765
720.0	0.02241540551706905	0.00016133687442329914
719.0	0.022363723177591978	0.00015805862371234337
718.0	0.022312286391364622	0.00015484066878395484
717.0	0.02226109202445145	0.00015168180843613924
716.0	0.022210136994063635	0.00014858086902014417
715.0	0.022159418267537263	0.0001455367037085109
714.0	0.022108932861335872	0.0001425481917854456
713.0	0.022058677840075994	0.0001396142379585502
712.0	0.022008650315575477	0.00013673377169134607
711.0	0.021958847445923566	0.00013390574655575867
710.0	0.021909266434573065	0.0001311291396039983
709.0	0.021859904529452953	0.0001284029507591312
708.0	0.021810759022101354	0.0001257262022236977
707.0	0.0217618272468187	0.0001230979379058042
706.0	0.02171310657983992	0.00012051722286215963
705.0	0.021664594438525437	0.00011798314275731413
704.0	0.021616288280570883	0.00011549480333882868
703.0	0.02156818560323425	0.00011305132992764269
702.0	0.021520283942580546	0.00011065186692318635
701.0	0.021472580872743636	0.00010829557732285786
700.0	0.0214250740052044	0.00010598164225526343
699.0	0.021377760988085057	0.00010370926052686816
698.0	0.021330639505459135	0.000101477648181565
697.0	0.02128370727667688	9.928603807281419e-5
696.0	0.02123769380205931	9.751948204046325e-5
695.0	0.02119302128470624	9.639890699995812e-5
694.0	0.021148492044793403	9.52924453857217e-5
693.0	0.021104104640995082	9.419989135907456e-5
692.0	0.021059857650645174	9.31210426356104e-5
691.0	0.02101574966943526	9.205570041308476e-5
690.0	0.020971779311118877	9.100366930101066e-5
689.0	0.020927945207221597	8.996475725190199e-5
688.0	0.020884246006756323	8.893877549408656e-5
687.0	0.020840680375944446	8.792553846610993e-5
686.0	0.02079724699794197	8.692486375263045e-5
685.0	0.020753944572571403	8.59365720218108e-5
684.0	0.02071077181605788	8.496048696412481e-5
683.0	0.0206677274607713	8.399643523258431e-5
682.0	0.02062481025497253	8.30442463843191e-5
681.0	0.02058201896256483	8.210375282348997e-5
680.0	0.02053935236284975	8.117478974549293e-5
679.0	0.020496809250287733	8.025719508242503e-5
678.0	0.02045438843426299	7.935080944978214e-5
677.0	0.020412088738853033	7.845547609435279e-5
676.0	0.020369909002602053	7.757104084327145e-5
675.0	0.020327848078299092	7.66973520542272e-5
674.0	0.020285904832759667	7.583426056675623e-5
673.0	0.020244078146611864	7.498161965463597e-5
672.0	0.020202366914086098	7.413928497932462e-5
671.0	0.02016077004280882	7.33071145444191e-5
670.0	0.02011928645359996	7.248496865113256e-5
669.0	0.02007791508027402	7.167270985473076e-5
668.0	0.020036654869444767	7.087020292193057e-5
667.0	0.01999550478033355	7.007731478922199e-5
666.0	0.019954463784580847	6.929391452209893e-5
665.0	0.019913530866061402	6.851987327517137e-5
664.0	0.019871888868806347	6.819817344624183e-5
663.0	0.019830254714167755	6.793894611474444e-5
662.0	0.01978874411805482	6.767871184134673e-5
661.0	0.019747355798158138	6.741751869470575e-5
660.0	0.01970608848915652	6.715541362634821e-5
659.0	0.01966494094243647	6.689244249672733e-5
658.0	0.019623911925817146	6.662865010061558e-5
657.0	0.019583000223280737	6.63640801918517e-5
656.0	0.019542204634708318	6.609877550745731e-5
655.0	0.01950152397562058	6.583277779114304e-5
654.0	0.01946095707692401	6.556612781621978e-5
653.0	0.01942050278466168	6.529886540793212e-5
652.0	0.019380159959769116	6.503102946523114e-5
651.0	0.019339927477834716	6.476265798199976e-5
650.0	0.01929980422886496	6.449378806775113e-5
649.0	0.019259789117054137	6.42244559678083e-5
648.0	0.019219881060558195	6.3954697082979e-5
647.0	0.019180078991273282	6.368454598874802e-5
646.0	0.019140381854618423	6.341403645399394e-5
645.0	0.019100788609322107	6.314320145924169e-5
644.0	0.019061298227213162	6.287207321446569e-5
643.0	0.019021909693015423	6.260068317645962e-5
642.0	0.018982622004146382	6.232906206577859e-5
641.0	0.01894343417051957	6.205723988326873e-5
640.0	0.01890434521435053	6.178524592619386e-5
639.0	0.018865354169966587	6.151310880397053e-5
638.0	0.018826460083620017	6.124085645352289e-5
637.0	0.01878766201330467	6.0968516154263126e-5
636.0	0.0187489590285761	6.069611454271711e-5
635.0	0.018711403449307842	6.00740034165925e-5
634.0	0.018673962379550654	5.9444757651143106e-5
633.0	0.018636593171880496	5.882226409995294e-5
632.0	0.0185992952584587	5.8206443580934e-5
631.0	0.01856206807704672	5.759721797743098e-5
630.0	0.018524911070937174	5.69945102215597e-5
629.0	0.018487823688886053	5.639824427784889e-5
628.0	0.01845080538504584	5.580834512717555e-5
627.0	0.01841385561889947	5.522473875097993e-5
626.0	0.018376973855195544	5.464735211577423e-5
625.0	0.018340159563884302	5.4076113157917974e-5
624.0	0.018303412220054497	5.351095076866745e-5
623.0	0.01826673130387133	5.2951794779487776e-5
622.0	0.01823011630051522	5.2398575947631115e-5
621.0	0.018193566700121462	5.185122594196031e-5
620.0	0.01815708199772056	5.130967732902354e-5
619.0	0.018120661693179906	5.077386355938273e-5
618.0	0.01808430529114585	5.024371895417123e-5
617.0	0.0180480123009866	4.9719178691884155e-5
616.0	0.018011782236736436	4.920017879541579e-5
615.0	0.01797561461704	4.868665611929857e-5
614.0	0.017939508965098116	4.817854833718715e-5
613.0	0.017903464808613705	4.767579392953818e-5
612.0	0.017867481679738763	4.717833217151484e-5
611.0	0.017831559115022492	4.668610312110233e-5
610.0	0.017795696655359256	4.6199047607413796e-5
609.0	0.017759893845938325	4.571710721921665e-5
608.0	0.017724150236193094	4.524022429362777e-5
607.0	0.0176884653797525	4.476834190503582e-5
606.0	0.0176528388343916	4.430140385417893e-5
605.0	0.01761727016198399	4.3839354657431906e-5
604.0	0.017581721472888775	4.337994567299592e-5
603.0	0.01754619910247976	4.292354227796859e-5
602.0	0.017510734519522477	4.247196528472066e-5
601.0	0.017475327285272412	4.202516003565684e-5
600.0	0.01743997696507997	4.158307257383141e-5
599.0	0.017404683128342813	4.1145649632564864e-5
598.0	0.017369445348459172	4.071283862524231e-5
597.0	0.017334263202781197	4.028458763527406e-5
596.0	0.017299136272569578	3.986084540623834e-5
595.0	0.017264064142948437	3.944156133218223e-5
594.0	0.01722904640286085	3.9026685448088645e-5
593.0	0.017194082645025217	3.861616842050568e-5
592.0	0.017159172465891978	3.8209961538330314e-5
591.0	0.017124315465601083	3.780801670374768e-5
590.0	0.017089511247939875	3.7410286423320557e-5
589.0	0.01705475942030188	3.701672379923174e-5
588.0	0.017020059593645654	3.66272825206636e-5
