2021-11-19T15:21:38.182
Frequency Re(k) Im(k)
375.0	0.0001834750763019824	0.02687735285007748
376.0	0.000182353614690993	0.026868405999662084
377.0	0.00018123190128690789	0.026859447166014808
378.0	0.00018010993447707685	0.026850476337282027
379.0	0.00017898771264421098	0.0268414935015781
380.0	0.0001778652341663621	0.026832498646985253
381.0	0.00017674249741689855	0.026823491761553485
382.0	0.00017561950076448442	0.02681447283330044
383.0	0.0001744962425730558	0.0268054418502113
384.0	0.00017337272120179962	0.026796398800238683
385.0	0.0001722489350051297	0.026787343671302567
386.0	0.00017112488233266479	0.026778276451290113
387.0	0.00017000056152920466	0.02676919712805563
388.0	0.00016887597093470817	0.026760105689420405
389.0	0.00016775110888426939	0.026751002123172624
390.0	0.00016662597370809405	0.026741886417067276
391.0	0.00016550056373147666	0.026732758558825995
392.0	0.00016437487727477684	0.026723618536136973
393.0	0.00016324891265339552	0.02671446633665489
394.0	0.0001621226681777503	0.02670530194800071
395.0	0.00016099614215325325	0.026696125357761637
396.0	0.0001598693328802852	0.026686936553491015
397.0	0.00016032410992400023	0.02667594284486861
398.0	0.00016271970132080452	0.026662737165457025
399.0	0.00016511623888230002	0.02664951790248151
400.0	0.00016751372761455736	0.026636285036359564
401.0	0.00016991217254409507	0.0266230385474505
402.0	0.00017231157871799106	0.0266097784160551
403.0	0.00017471195120399597	0.026596504622415425
404.0	0.0001771132950906447	0.026583217146714577
405.0	0.00017951561548736996	0.026569915969076475
406.0	0.00018191891752461823	0.02655660106956555
407.0	0.00018432320635396242	0.026543272428186607
408.0	0.00018672848714822008	0.02652993002488453
409.0	0.00018913476510156856	0.026516573839543967
410.0	0.00019154204542966245	0.02650320385198929
411.0	0.00019395033336975286	0.026489820041984115
412.0	0.00019635963418080532	0.02647642238923118
413.0	0.0001987699531436197	0.02646301087337212
414.0	0.00020118129556095056	0.02644958547398716
415.0	0.00020359366675762975	0.02643614617059487
416.0	0.0002060070720806868	0.02642269294265192
417.0	0.0002084215168994732	0.02640922576955289
418.0	0.0002108370066057855	0.02639574463062988
419.0	0.00021325354661399032	0.0263822495051524
420.0	0.000215671142361149	0.026368740372327025
421.0	0.00021808979930714527	0.026355217211297154
422.0	0.0002205095229348116	0.02634168000114278
423.0	0.00022293031875005666	0.026328128720880185
424.0	0.000225352192281995	0.026314563349461705
425.0	0.0002277751490830769	0.026300983865775465
426.0	0.00023032188602117791	0.02628719716084889
427.0	0.00023301344297890037	0.02627317012827722
428.0	0.00023570621637426805	0.02625912876136317
429.0	0.0002384002125509129	0.02624507303790355
430.0	0.0002410954378800171	0.02623100293562652
431.0	0.00024379189876046924	0.026216918432191247
432.0	0.00024648960161902225	0.026202819505187713
433.0	0.00024918855291045376	0.026188706132136304
434.0	0.00025188875911772595	0.026174578290487624
435.0	0.00025459022675214675	0.02616043595762215
436.0	0.0002572929623535343	0.026146279110849924
437.0	0.0002599969724903773	0.026132107727410307
438.0	0.0002627022637600041	0.026117921784471615
439.0	0.00026540884278874614	0.02610372125913089
440.0	0.0002681167162321052	0.026089506128413528
441.0	0.0002708258907749236	0.026075276369273037
442.0	0.000273536373131551	0.02606103195859068
443.0	0.0002762481700460188	0.02604677287317523
444.0	0.00027896128829220856	0.026032499089762563
445.0	0.00028167573467402745	0.026018210585015467
446.0	0.0002843915160255818	0.02600390733552324
447.0	0.00028710863921135204	0.025989589317801418
448.0	0.00028982711112637225	0.025975256508291467
449.0	0.00029254693869640427	0.025960908883360424
450.0	0.00029526812887811993	0.025946546419300616
451.0	0.00029799068865928117	0.02593216909232932
452.0	0.00030071462505892096	0.025917776878588462
453.0	0.0003034399451275279	0.025903369754144267
454.0	0.00030616665594722874	0.025888947694986956
455.0	0.00030893945315188466	0.025875030735924544
456.0	0.00031177421118443427	0.02586180385403457
457.0	0.00031461038503433205	0.025848562498360397
458.0	0.00031744798171143886	0.02583530664746519
459.0	0.0003202870082551908	0.025822036279846895
460.0	0.0003231274717347665	0.025808751373937962
461.0	0.00032596937924925294	0.025795451908105144
462.0	0.00032881273792781574	0.025782137860649125
463.0	0.00033165755492986954	0.025768809209804365
464.0	0.0003345038374452472	0.025755465933738723
465.0	0.00033735159269437503	0.02574210801055327
466.0	0.00034020082792844306	0.025728735418281943
467.0	0.0003430515504295832	0.025715348134891316
468.0	0.00034590376751104143	0.025701946138280325
469.0	0.00034875748651735857	0.025688529406279945
470.0	0.0003516127148245456	0.025675097916652952
471.0	0.00035446945984026547	0.025661651647093626
472.0	0.0003573277290040122	0.02564819057522747
473.0	0.0003601875297872943	0.025634714678610906
474.0	0.00036304886969381646	0.02562122393473103
475.0	0.0003659117562596657	0.025607718321005304
476.0	0.00036877619705349664	0.025594197814781207
477.0	0.00037164219967671764	0.025580662393336083
478.0	0.0003745097717636808	0.025567112033876706
479.0	0.0003773789209818711	0.025553546713539075
480.0	0.0003802496550320964	0.025539966409388066
481.0	0.00038312198164868074	0.02552637109841717
482.0	0.00038599590859965914	0.0255127607575482
483.0	0.00038887144368697035	0.025499135363630927
484.0	0.0003917485947466543	0.025485494893442883
485.0	0.0003946273696490506	0.025471839323688957
486.0	0.00039750777629899635	0.02545816863100114
487.0	0.0003962039017760081	0.02543868262289601
488.0	0.00039470313520769876	0.025418906072120103
489.0	0.0003932019401812451	0.025399111162647158
490.0	0.00039170031333869975	0.025379297852459824
491.0	0.0003901982513021995	0.025359466099368864
492.0	0.00038869575067382013	0.025339615861012077
493.0	0.0003871928080354298	0.02531974709485344
494.0	0.0003856894199485417	0.025299859758181987
495.0	0.00038418558295416107	0.02527995380811091
496.0	0.00038268129357263783	0.0252600292015765
497.0	0.0003811765483035117	0.025240085895337164
498.0	0.00037967134362536107	0.025220123845972407
499.0	0.0003781656759956448	0.025200143009881774
500.0	0.00037665954185054815	0.02518014334328385
501.0	0.00037515293760482366	0.025160124802215238
502.0	0.00037364585965163203	0.025140087342529406
503.0	0.0003721383043623815	0.025120030919895772
504.0	0.0003706302680865656	0.025099955489798553
505.0	0.00036912174715159914	0.025079861007535675
506.0	0.00036761273786265364	0.02505974742821777
507.0	0.0003661032365024896	0.025039614706767025
508.0	0.0003645932393312897	0.02501946279791611
509.0	0.0003630827425864867	0.024999291656207057
510.0	0.000361571742482595	0.024979101235990155
511.0	0.0003600602352110352	0.024958891491422868
512.0	0.00035854821693996126	0.024938662376468586
513.0	0.0003570356838140831	0.024918413844895636
514.0	0.00035552263195449046	0.024898145850276058
515.0	0.000354009057458472	0.024877858345984414
516.0	0.00035709694405830933	0.024860334151918156
517.0	0.00036027521646245605	0.024842845489322588
518.0	0.0003634556167313811	0.024825338946048187
519.0	0.0003666381564668456	0.02480781448574214
520.0	0.0003698228473336743	0.024790272071916787
521.0	0.00037300970106018917	0.024772711667948883
522.0	0.0003761987294386509	0.024755133237078897
523.0	0.0003793899443257017	0.024737536742410377
524.0	0.0003825833576428138	0.024719922146909185
525.0	0.0003857789813767392	0.024702289413402825
526.0	0.0003889768275799639	0.02468463850457976
527.0	0.0003921769083711684	0.024666969382988662
528.0	0.00039537923593568875	0.024649282011037717
529.0	0.0003985838225259842	0.02463157635099389
530.0	0.0004017906804621062	0.024613852364982234
531.0	0.0004049998221321744	0.02459611001498512
532.0	0.00040821125999285294	0.0245783492628415
533.0	0.0004114250065698357	0.024560570070246257
534.0	0.0004146410744583315	0.0245427723987493
535.0	0.0004178594763235541	0.02452495620975496
536.0	0.000421080224901219	0.024507121464521168
537.0	0.00042430333299804196	0.024489268124158733
538.0	0.0004275288134922421	0.024471396149630512
539.0	0.00043075667933405073	0.024453505501750742
540.0	0.000433986943546223	0.024435596141184148
541.0	0.00043721961922455475	0.02441766802844527
542.0	0.0004404547195384039	0.02439972112389763
543.0	0.0004436922577312158	0.024381755387752956
544.0	0.0004469322471210546	0.02436377078007032
545.0	0.0004501747011011363	0.024345767260755477
546.0	0.000453419633140369	0.02432774478955994
547.0	0.0004540122667142346	0.024304274455858386
548.0	0.0004522676699470218	0.02427599981012694
549.0	0.00045052246518783803	0.024247698807745858
550.0	0.00044877664687681846	0.024219371358789227
551.0	0.0004470302094068216	0.02419101737282103
552.0	0.0004452831471229579	0.024162636758891305
553.0	0.0004435354543221094	0.024134229425532082
554.0	0.00044178712525244493	0.024105795280753264
555.0	0.000440038154112931	0.024077334232038707
556.0	0.0004382885350528331	0.024048846186341885
557.0	0.00043653826217121447	0.02402033105008187
558.0	0.00043478732951642766	0.02399178872913901
559.0	0.00043303573108559654	0.023963219128850737
560.0	0.00043128346082409907	0.0239346221540072
561.0	0.0004295305126250359	0.023905997708847007
562.0	0.00042777688032869876	0.023877345697052726
563.0	0.00042602255772202554	0.023848666021746515
564.0	0.0004242675385380577	0.023819958585485627
565.0	0.0004225118164553817	0.023791223290257863
566.0	0.0004207553850975675	0.023762460037477028
567.0	0.00041899823803260433	0.023733668727978257
568.0	0.0004172403687723194	0.023704849262013404
569.0	0.0004154817707717993	0.02367600153924628
570.0	0.0004137224374287974	0.023647125458747923
571.0	0.0004119623620831363	0.023618220918991694
572.0	0.00041020153801610504	0.02358928781784856
573.0	0.00040843995844984225	0.023560326052581973
574.0	0.00040667761654671926	0.023531335519843127
575.0	0.00040491450540870933	0.023502316115665747
576.0	0.000404395109670879	0.023474025812868324
577.0	0.00040526787738937297	0.0234465549954658
578.0	0.00040614208461791154	0.0234190564291604
579.0	0.0004070177410597668	0.023391530018467624
580.0	0.0004078948564984101	0.02336397566735414
581.0	0.0004087734407983386	0.023336393279233383
582.0	0.00040965350390591526	0.0233087827569612
583.0	0.0004105350558502199	0.023281144002831367
584.0	0.00041141810674390997	0.023253476918571152
585.0	0.0004123026667840904	0.02322578140533674
586.0	0.00041318874625319914	0.023198057363708707
587.0	0.00041407635551989855	0.023170304693687353
588.0	0.00041496550503998243	0.023142523294688012
589.0	0.0004158562053572924	0.023114713065536426
590.0	0.0004167484671046469	0.023086873904463852
591.0	0.000417642301004781	0.023059005709102343
592.0	0.0004185377178713001	0.023031108376479852
593.0	0.00041943472860964435	0.023003181803015253
594.0	0.0004203333442180665	0.022975225884513437
595.0	0.0004212335757886212	0.022947240516160303
596.0	0.00042213543450816927	0.02291922559251761
597.0	0.0004230389316593927	0.02289118100751791
598.0	0.00042394407862182394	0.022863106654459314
599.0	0.000424850886872889	0.02283500242600031
600.0	0.00042575936798896417	0.022806868214154435
601.0	0.00042666953364644595	0.022778703910284904
602.0	0.0004275813956228349	0.022750509405099262
603.0	0.0004284949657978349	0.022722284588643855
604.0	0.00042941025615446675	0.02269402935029837
605.0	0.0004303261672422915	0.02266605731579228
606.0	0.00043124247964406354	0.02263842663377819
607.0	0.0004321605115299466	0.022610765852956603
608.0	0.0004330802748295164	0.02258307486503898
609.0	0.0004340017815752268	0.022555353561085643
610.0	0.0004349250439035247	0.022527601831500453
611.0	0.0004358500740559808	0.022499819566025214
612.0	0.0004367768843804348	0.022472006653734243
613.0	0.00043770548733215525	0.02244416298302872
614.0	0.00043863589547501596	0.02241628844163107
615.0	0.00043956812148268756	0.022388382916579255
616.0	0.0004405021781398437	0.022360446294220973
617.0	0.00044143807834338657	0.02233247846020785
618.0	0.0004423758351036854	0.022304479299489508
619.0	0.00044331546154583395	0.02227644869630765
620.0	0.0004442569709109234	0.022248386534189986
621.0	0.00044520037655733445	0.02222029269594419
622.0	0.00044614569196204447	0.02219216706365168
623.0	0.00044709293072195416	0.02216400951866142
624.0	0.00044804210655523214	0.02213581994158364
625.0	0.0004489932333026766	0.022107598212283436
626.0	0.0004499463249290978	0.022079344209874358
627.0	0.000450901395524717	0.022051057812711897
628.0	0.000451858459306587	0.022022738898386882
629.0	0.0004528175306200305	0.021994387343718856
630.0	0.00045377862394009886	0.02196600302474932
631.0	0.00045474175387305235	0.021937585816734988
632.0	0.00045570693515785795	0.021909135594140802
633.0	0.00045667418266771235	0.021880652230633083
634.0	0.00045764351141158147	0.021852135599072422
635.0	0.00045861493653576553	0.02182358557150659
636.0	0.0004594633656907897	0.02179469067883619
637.0	0.000457150149929061	0.02175788839298101
638.0	0.0004548354755965472	0.021721042507313357
639.0	0.00045251932706576376	0.021684152804196243
640.0	0.0004502016885263838	0.02164721906424043
641.0	0.000447882543982667	0.02161024106628517
642.0	0.00044556187725084176	0.02157321858737851
643.0	0.00044323967195644806	0.02153615140275738
644.0	0.0004409159115316287	0.021499039285827404
645.0	0.0004385905792123777	0.02146188200814241
646.0	0.0004362636580357384	0.021424679339383614
647.0	0.00043393513083695573	0.021387431047338607
648.0	0.00043160498024657665	0.02135013689787988
649.0	0.00042927318868750007	0.021312796654943223
650.0	0.00042693973837197726	0.021275410080505614
651.0	0.00042460461129855526	0.02123797693456296
652.0	0.00042226778924897026	0.021200496975107397
653.0	0.000419929253784986	0.02116296995810431
654.0	0.00041758898624517205	0.02112539563746902
655.0	0.0004152469677416289	0.021087773765043064
656.0	0.00041290317915665175	0.021050104090570183
657.0	0.0004105576011393374	0.021012386361671995
658.0	0.00040821021410212594	0.020974620323823166
659.0	0.000405860998217284	0.020936805720326312
660.0	0.0004035099334133217	0.020898942292286556
661.0	0.0004011569993713465	0.02086102977858559
662.0	0.0003988021755213476	0.02082306791585541
663.0	0.00039644544103841634	0.020785056438451705
664.0	0.0003940867748388927	0.02074699507842669
665.0	0.00039212622147946825	0.020709531905137645
666.0	0.0003929849408790116	0.020676590605824125
667.0	0.0003938461101380541	0.020643606235350574
668.0	0.0003947097501793101	0.020610578590337495
669.0	0.0003955758821555467	0.02057750746583217
670.0	0.00039644452745278254	0.020544392655291805
671.0	0.00039731570769354295	0.020511233950566466
672.0	0.0003981894447401671	0.02047803114188179
673.0	0.000399065760698173	0.020444784017821446
674.0	0.00039994467791968247	0.020411492365309293
675.0	0.00040082621900689987	0.020378155969591395
676.0	0.0004017104068156552	0.020344774614217718
677.0	0.00040259726445900725	0.020311348081023587
678.0	0.000403486815310907	0.02027787615011088
679.0	0.0004043790830099281	0.020244358599828958
680.0	0.0004052740914630595	0.020210795206755332
681.0	0.0004061718648495671	0.020177185745676018
682.0	0.000407072427624919	0.02014352998956571
683.0	0.000407975804524786	0.02010982770956755
684.0	0.00040888202056910654	0.02007607867497269
685.0	0.00040979110106622755	0.020042282653199486
686.0	0.0004107030716171169	0.02000843940977255
687.0	0.00041161795811965287	0.019974548708301273
688.0	0.0004125357867729884	0.019940610310458216
689.0	0.00041345658408199336	0.019906623975957112
690.0	0.00041438037686178055	0.019872589462530534
691.0	0.0004153071922423081	0.019838506525907348
692.0	0.000416237057673069	0.019804374919789643
693.0	0.00041717000092786414	0.019770194395829492
694.0	0.00041810605010966334	0.019735964703605287
695.0	0.0004190452336555551	0.01970168559059776
696.0	0.0004199875803417857	0.019667356802165598
697.0	0.0004232989118682849	0.019627717058107372
698.0	0.0004280823945313098	0.01958476336534217
699.0	0.00043287722207069925	0.019541744785015427
700.0	0.00043768352447286945	0.01949866090490615
701.0	0.0004425014336110037	0.019455511308668804
702.0	0.0004473310832793191	0.019412295575777276
703.0	0.00045217260922808	0.01936901328146811
704.0	0.0004570261491993864	0.019325663996682625
705.0	0.00046189184296377574	0.019282247288008026
706.0	0.000466769832357619	0.019238762717617597
707.0	0.0004716602613213678	0.019195209843209816
708.0	0.00047656327593865967	0.019151588217946366
709.0	0.0004814790244763048	0.019107897390389164
710.0	0.0004864076574251824	0.019064136904436143
711.0	0.0004913493275420642	0.01902030629925613
712.0	0.0004963041898923995	0.018976405109222303
713.0	0.0005012724018940766	0.018932432863844703
714.0	0.0005062541233621958	0.01888838908770145
715.0	0.0005112495165548766	0.01884427330036872
716.0	0.0005162587462201312	0.018800085016349558
717.0	0.0005212819796438266	0.018755823745001305
718.0	0.0005263193866987762	0.018711488990461825
719.0	0.0005313711398949797	0.01866708025157433
720.0	0.0005364374144310535	0.018622597021810884
721.0	0.000541518388246876	0.018578038789194534
722.0	0.000546614242077493	0.018533405036219953
723.0	0.0005517251595083035	0.01848869523977273
724.0	0.0005568513270315737	0.01844390887104713
725.0	0.0005619929341043183	0.018399045395462315
726.0	0.0005648478003987364	0.018345802877400137
727.0	0.0005664028670828772	0.018287727420737185
728.0	0.0005679683551777132	0.018229539089851626
729.0	0.0005695444267766259	0.018171236824384655
730.0	0.0005711312473208374	0.018112819548334307
731.0	0.0005727289856871523	0.018054286169739746
732.0	0.0005743378142785107	0.017995635580357612
733.0	0.0005759579091174587	0.017936866655329762
734.0	0.0005775894499426389	0.01787797825284256
735.0	0.0005792326203084226	0.017818969213777
736.0	0.0005808876076878053	0.017759838361349797
737.0	0.0005825546035786917	0.017700584500744836
738.0	0.0005842338036136954	0.01764120641873485
739.0	0.0005859254076736059	0.01758170288329294
740.0	0.0005876296200046502	0.017522072643193533
741.0	0.0005893466493397152	0.017462314427602616
742.0	0.0005910767090236778	0.017402426945656763
743.0	0.0005928200171430133	0.017342408886030513
744.0	0.0005945767966598546	0.017282258916491926
745.0	0.0005963472755506821	0.01722197568344571
746.0	0.0005981316869498358	0.017161557811463526
747.0	0.0005999302692980445	0.017101003902801268
748.0	0.0006017432664961809	0.017040312536902514
749.0	0.0006035709280644698	0.016979482269887845
750.0	0.0006054135093073584	0.016918511634029753
751.0	0.0006072712714843108	0.01685739913721211
752.0	0.0006091444819867604	0.016796143262374254
753.0	0.0006110334145214947	0.016734742466938644
754.0	0.0006129383493007419	0.016673195182221896
755.0	0.0006148629742635136	0.016611249429054384
756.0	0.0006168064399687159	0.01654899626311778
757.0	0.0006187669570360392	0.0164865902346861
758.0	0.0006207448386984888	0.016424029636461005
759.0	0.0006227404059248599	0.016361312731143204
760.0	0.0006247539876634618	0.016298437750708494
761.0	0.0006267859210952392	0.016235402895661222
762.0	0.0006288365518967078	0.016172206334264878
763.0	0.0006309062345131742	0.016108846201748312
764.0	0.0006329953324426946	0.016045320599487174
765.0	0.0006351042185312977	0.015981627594159192
766.0	0.0006372332752799758	0.015917765216872794
767.0	0.0006393828951640237	0.015853731462267335
768.0	0.0006415534809652982	0.015789524287584636
769.0	0.0006437454461180259	0.01572514161170987
770.0	0.0006459592150688113	0.015660581314181354
771.0	0.0006481952236515369	0.015595841234167362
772.0	0.0006504539194778928	0.01553091916940907
773.0	0.0006527357623442951	0.015465812875128025
774.0	0.000655041224656023	0.015400520062896775
775.0	0.0006573707918694269	0.015335038399471155
776.0	0.0006597249629531336	0.015269365505582553
777.0	0.000662104250869202	0.015203498954688626
778.0	0.000664509183075266	0.015137436271680627
779.0	0.0006669403020487436	0.015071174931545507
780.0	0.0006693981658342656	0.0150047123579809
781.0	0.0006718833486155405	0.014938045921960921
